#FileType: Geant4 XSECTSPY DATA
#PhysicsList: QGSP_BIC_HP_EMZ
#ParticleName: neutron
#ParticleCode: 2112
#ParticleMass[MeV/c^2]: 939.565
#ParticleCharge: 0.000000
#Material: NCrystal:cfg=Epoxy_Araldite506_C18H20O3.ncmat
#MaterialDensity [g/cm3]: 1.18
#MaterialTemperature [K]: 293.15
#MaterialPressure [bar]: 1.01325
#MaterialAverageAtomicWeight [amu]: 6.93537
#NAtomsPerVolume [1/cm3]: 1.02462e+23
#ConvertXSectBarnToMeanFreePathMilliMeter: 97.5971
#EnergyUnit: eV
#XSectUnit: barn
#Process 0: neutronInelastic
1.01157945426e-09 0.21132465848
1.02329299228e-09 0.210445258369
1.03514216668e-09 0.209227566017
1.04712854805e-09 0.20799698089
1.05925372518e-09 0.206757578637
1.07151930524e-09 0.205562716944
1.08392691402e-09 0.204408891093
1.09647819614e-09 0.203270662948
1.10917481526e-09 0.202123631457
1.1220184543e-09 0.200935291603
1.13501081567e-09 0.19974925592
1.1481536215e-09 0.198591915235
1.16144861384e-09 0.197463084147
1.17489755494e-09 0.196272704358
1.18850222744e-09 0.195234365146
1.20226443462e-09 0.194091115116
1.21618600065e-09 0.192995472265
1.23026877081e-09 0.191860763946
1.24451461177e-09 0.190854171608
1.25892541179e-09 0.189715327443
1.27350308102e-09 0.18859324079
1.28824955169e-09 0.187444182059
1.30316677845e-09 0.186378489973
1.31825673856e-09 0.185346836753
1.33352143216e-09 0.184256860056
1.34896288259e-09 0.183243631087
1.36458313659e-09 0.182238329042
1.3803842646e-09 0.181067949303
1.39636836106e-09 0.180178189062
1.41253754462e-09 0.179047108838
1.42889395851e-09 0.178046998566
1.44543977075e-09 0.176988125244
1.46217717446e-09 0.175983969628
1.47910838817e-09 0.175014875372
1.49623565609e-09 0.173993144919
1.51356124844e-09 0.172989516243
1.53108746168e-09 0.172065512815
1.54881661891e-09 0.171025675346
1.56675107011e-09 0.170076255484
1.58489319246e-09 0.169104803451
1.60324539069e-09 0.168102220182
1.62181009736e-09 0.167087597998
1.6405897732e-09 0.16614297666
1.65958690744e-09 0.165196339345
1.67880401812e-09 0.16429579377
1.69824365246e-09 0.163318690116
1.71790838716e-09 0.162399136668
1.73780082875e-09 0.161462987253
1.75792361396e-09 0.160498426498
1.77827941004e-09 0.159573918175
1.79887091513e-09 0.158664159848
1.81970085861e-09 0.157845140744
1.84077200147e-09 0.156933935442
1.86208713666e-09 0.155988896824
1.88364908949e-09 0.155058291562
1.90546071796e-09 0.154178620038
1.92752491319e-09 0.153268847267
1.94984459976e-09 0.152427886124
1.97242273612e-09 0.151561859048
1.99526231497e-09 0.150636351131
2.01836636368e-09 0.149846367569
2.04173794467e-09 0.148899679167
2.06538015581e-09 0.148040038048
2.08929613085e-09 0.14725268522
2.11348903984e-09 0.146367507258
2.1379620895e-09 0.145542713522
2.16271852373e-09 0.144736082696
2.18776162395e-09 0.143891071301
2.21309470961e-09 0.14308795992
2.23872113857e-09 0.142283747574
2.26464430759e-09 0.141451355171
2.29086765277e-09 0.140600994165
2.31739464997e-09 0.139772919411
2.34422881532e-09 0.139024205981
2.37137370566e-09 0.138227925444
2.39883291902e-09 0.137383359141
2.42661009508e-09 0.136651282068
2.45470891569e-09 0.135832115204
2.4831331053e-09 0.135007786047
2.51188643151e-09 0.13425734613
2.54097270555e-09 0.133483928165
2.57039578277e-09 0.132780730842
2.60015956317e-09 0.131965644534
2.6302679919e-09 0.131224457741
2.6607250598e-09 0.13048106253
2.69153480393e-09 0.129711703793
2.72270130808e-09 0.128989198267
2.75422870334e-09 0.128262098154
2.78612116863e-09 0.127547359603
2.81838293126e-09 0.126791415254
2.8510182675e-09 0.126078359816
2.88403150313e-09 0.125312192581
2.917427014e-09 0.12455744151
2.95120922667e-09 0.123863290036
2.98538261892e-09 0.12320835496
3.0199517204e-09 0.122532545754
3.05492111322e-09 0.121773754063
3.09029543251e-09 0.121089498176
3.12607936712e-09 0.120413024238
3.16227766017e-09 0.119664582341
3.19889510969e-09 0.119027678072
3.2359365693e-09 0.118398865056
3.27340694879e-09 0.117623157342
3.31131121483e-09 0.116989176942
3.34965439158e-09 0.11627875646
3.38844156139e-09 0.115581173654
3.42767786547e-09 0.114973521188
3.46736850453e-09 0.114302425202
3.50751873953e-09 0.113618408151
3.54813389234e-09 0.113004672513
3.58921934645e-09 0.112328602142
3.6307805477e-09 0.111728176309
3.67282300498e-09 0.111087552148
3.71535229097e-09 0.11046422558
3.75837404289e-09 0.109830881497
3.80189396321e-09 0.109161288002
3.84591782045e-09 0.10854735727
3.89045144994e-09 0.10791033607
3.93550075456e-09 0.107274906124
3.98107170554e-09 0.106674477143
4.02717034326e-09 0.106062180561
4.07380277804e-09 0.10545914969
4.12097519097e-09 0.104832780396
4.1686938347e-09 0.104223880719
4.21696503429e-09 0.103628253054
4.26579518802e-09 0.103048312313
4.31519076828e-09 0.102467318712
4.3651583224e-09 0.101883320593
4.41570447353e-09 0.10130003289
4.46683592151e-09 0.100695046896
4.51855944375e-09 0.100158737519
4.57088189615e-09 0.0995661880935
4.62381021399e-09 0.0989792247841
4.67735141287e-09 0.0984260949547
4.73151258962e-09 0.0978591542037
4.78630092323e-09 0.0972734206426
4.84172367584e-09 0.0967382744583
4.89778819369e-09 0.0961460818038
4.95450190805e-09 0.095624124244
5.01187233627e-09 0.095018680017
5.06990708275e-09 0.0945196574903
5.12861383991e-09 0.0939631184319
5.18800038929e-09 0.0934874019072
5.2480746025e-09 0.0929013217824
5.30884444231e-09 0.0923915104413
5.3703179637e-09 0.0918464804093
5.43250331493e-09 0.0913251740916
5.49540873858e-09 0.0908047043949
5.55904257271e-09 0.0902565240979
5.62341325191e-09 0.0897615656878
5.68852930844e-09 0.0892546742752
5.75439937337e-09 0.0887178183919
5.82103217771e-09 0.0881930158142
5.88843655356e-09 0.087686687028
5.95662143529e-09 0.0871859517557
6.02559586075e-09 0.0867276816656
6.0953689724e-09 0.086245401814
6.16595001862e-09 0.085724598985
6.23734835483e-09 0.0852239564121
6.3095734448e-09 0.0847275460676
6.38263486191e-09 0.0842697948123
6.45654229035e-09 0.0837938225873
6.53130552648e-09 0.0832816781867
6.60693448008e-09 0.0827999405179
6.68343917569e-09 0.0823161962317
6.76082975392e-09 0.0818539551541
6.83911647282e-09 0.0813876382061
6.91830970919e-09 0.0809100444612
6.99841996002e-09 0.080438424678
7.07945784384e-09 0.0800108847934
7.16143410213e-09 0.07955199056
7.24435960075e-09 0.0790878889637
7.32824533139e-09 0.0786198930283
7.41310241301e-09 0.0781731902153
7.49894209333e-09 0.0777008826798
7.58577575029e-09 0.0773032404764
7.67361489362e-09 0.0768287344819
7.76247116629e-09 0.0763666082539
7.8523563461e-09 0.0759689861155
7.94328234725e-09 0.0754906516539
8.03526122186e-09 0.0750814628891
8.12830516164e-09 0.0746450630822
8.22242649947e-09 0.0742306267775
8.31763771103e-09 0.0738195903824
8.41395141645e-09 0.0733650216404
8.51138038203e-09 0.0729496540274
8.60993752185e-09 0.0725215082896
8.70963589956e-09 0.0721155970599
8.81048873008e-09 0.0717109450053
8.91250938134e-09 0.0713073968556
9.01571137606e-09 0.0708607226831
9.12010839356e-09 0.0704418627316
9.22571427155e-09 0.0700506471756
9.33254300797e-09 0.0696806677071
9.44060876286e-09 0.0692735826863
9.54992586022e-09 0.0688525454639
9.6605087899e-09 0.0684857851891
9.77237220956e-09 0.0680887266007
9.88553094657e-09 0.0676990999004
1e-08 0.0673211435827
1.01157945426e-08 0.0669201480768
1.02329299228e-08 0.0665380717062
1.03514216668e-08 0.066140635393
1.04712854805e-08 0.0657648675387
1.05925372518e-08 0.0654099705442
1.07151930524e-08 0.0650292685024
1.08392691402e-08 0.0646450831257
1.09647819614e-08 0.0642832231207
1.10917481526e-08 0.0638942949654
1.1220184543e-08 0.0635508942984
1.13501081567e-08 0.0631769050775
1.1481536215e-08 0.0628305681213
1.16144861384e-08 0.0624709949767
1.17489755494e-08 0.0620958573202
1.18850222744e-08 0.0617448798277
1.20226443462e-08 0.0614022466797
1.21618600065e-08 0.0610253099748
1.23026877081e-08 0.0606673764956
1.24451461177e-08 0.0603350288777
1.25892541179e-08 0.0599974484535
1.27350308102e-08 0.0596292480638
1.28824955169e-08 0.0592915804883
1.30316677845e-08 0.0589560984344
1.31825673856e-08 0.0586306109245
1.33352143216e-08 0.0582887559656
1.34896288259e-08 0.0579420415348
1.36458313659e-08 0.0576090518889
1.3803842646e-08 0.0572924244795
1.39636836106e-08 0.0569791756887
1.41253754462e-08 0.0566426073245
1.42889395851e-08 0.056311983877
1.44543977075e-08 0.055985952045
1.46217717446e-08 0.0556619367253
1.47910838817e-08 0.0553369783537
1.49623565609e-08 0.0550282107368
1.51356124844e-08 0.0547150497257
1.53108746168e-08 0.0543912421026
1.54881661891e-08 0.054107496171
1.56675107011e-08 0.0537892250935
1.58489319246e-08 0.0534677091791
1.60324539069e-08 0.0531689446337
1.62181009736e-08 0.0528353997786
1.6405897732e-08 0.0525508292279
1.65958690744e-08 0.0522387461004
1.67880401812e-08 0.051943145538
1.69824365246e-08 0.0516333509689
1.71790838716e-08 0.0513535292306
1.73780082875e-08 0.0510537641176
1.75792361396e-08 0.0507775654526
1.77827941004e-08 0.0504793769328
1.79887091513e-08 0.0501799070319
1.81970085861e-08 0.0498989694597
1.84077200147e-08 0.0496043355663
1.86208713666e-08 0.0493254387846
1.88364908949e-08 0.0490246000737
1.90546071796e-08 0.0487567717197
1.92752491319e-08 0.0484702724925
1.94984459976e-08 0.0482224814041
1.97242273612e-08 0.047928396921
1.99526231497e-08 0.0476380037945
2.01836636368e-08 0.0473880117737
2.04173794467e-08 0.0471012778067
2.06538015581e-08 0.0468354960799
2.08929613085e-08 0.046565189726
2.11348903984e-08 0.0462879725446
2.1379620895e-08 0.04603753926
2.16271852373e-08 0.0457746933104
2.18776162395e-08 0.0455021459509
2.21309470961e-08 0.0452455892803
2.23872113857e-08 0.0449765338986
2.26464430759e-08 0.0447118694176
2.29086765277e-08 0.0444660112281
2.31739464997e-08 0.0442063345714
2.34422881532e-08 0.0439728579563
2.37137370566e-08 0.0437067690668
2.39883291902e-08 0.0434579905014
2.42661009508e-08 0.0432069949311
2.45470891569e-08 0.0429546139763
2.4831331053e-08 0.0426952594203
2.51188643151e-08 0.0424546700401
2.54097270555e-08 0.0422317265176
2.57039578277e-08 0.0419697373037
2.60015956317e-08 0.0417505604001
2.6302679919e-08 0.0414896518209
2.6607250598e-08 0.0412545778436
2.69153480393e-08 0.0410364978309
2.72270130808e-08 0.0407902739814
2.75422870334e-08 0.0405724270963
2.78612116863e-08 0.0403138291037
2.81838293127e-08 0.0401075494581
2.8510182675e-08 0.0398588640616
2.88403150313e-08 0.0396375892746
2.917427014e-08 0.0394149349826
2.95120922667e-08 0.0391814801239
2.98538261892e-08 0.038943559167
3.0199517204e-08 0.0387343146046
3.05492111322e-08 0.0385150294972
3.09029543251e-08 0.0382898681557
3.12607936712e-08 0.0380560439146
3.16227766017e-08 0.0378600129096
3.19889510969e-08 0.0376293406062
3.2359365693e-08 0.0374251883189
3.27340694879e-08 0.0372022055408
3.31131121483e-08 0.0369812169096
3.34965439158e-08 0.0367712947259
3.38844156139e-08 0.0365630857236
3.42767786547e-08 0.0363642435631
3.46736850453e-08 0.0361469654631
3.50751873953e-08 0.0359396562419
3.54813389234e-08 0.0357380318218
3.58921934645e-08 0.035522948955
3.6307805477e-08 0.0353193673472
3.67282300498e-08 0.0351291864116
3.71535229097e-08 0.0349166467808
3.75837404289e-08 0.0347279764104
3.80189396321e-08 0.0345233515893
3.84591782045e-08 0.0343193974367
3.89045144994e-08 0.0341245464372
3.93550075456e-08 0.0339163125686
3.98107170554e-08 0.0337363622791
4.02717034326e-08 0.0335351323755
4.07380277804e-08 0.0333543392134
4.12097519097e-08 0.0331527099716
4.1686938347e-08 0.0329652259895
4.21696503429e-08 0.0327762675749
4.26579518802e-08 0.0325937416731
4.31519076828e-08 0.0324029818899
4.3651583224e-08 0.0322036978646
4.41570447353e-08 0.0320318251336
4.46683592151e-08 0.0318505053526
4.51855944375e-08 0.0316614305311
4.57088189615e-08 0.031491857754
4.62381021399e-08 0.0313060757491
4.67735141287e-08 0.0311195178932
4.73151258962e-08 0.030940181333
4.78630092323e-08 0.0307617052019
4.84172367584e-08 0.0305889639718
4.89778819369e-08 0.0304129711107
4.95450190805e-08 0.0302437986773
5.01187233627e-08 0.0300612663795
5.06990708275e-08 0.0298947904311
5.12861383992e-08 0.0297185602581
5.18800038929e-08 0.02954983699
5.2480746025e-08 0.0293887664754
5.30884444231e-08 0.0292055016736
5.3703179637e-08 0.0290397763836
5.43250331493e-08 0.0288780984957
5.49540873858e-08 0.028722614953
5.55904257271e-08 0.0285479620218
5.62341325191e-08 0.0283869584236
5.68852930844e-08 0.0282211014545
5.75439937337e-08 0.0280612483237
5.82103217771e-08 0.027900662337
5.88843655356e-08 0.0277331464838
5.95662143529e-08 0.0275769046239
6.02559586075e-08 0.0274173877598
6.0953689724e-08 0.0272584251019
6.16595001862e-08 0.0271062178014
6.23734835483e-08 0.0269532703514
6.3095734448e-08 0.0267965944742
6.38263486191e-08 0.0266380745181
6.45654229035e-08 0.0264798279538
6.53130552648e-08 0.0263325604904
6.60693448008e-08 0.0261857574749
6.68343917569e-08 0.0260404915045
6.76082975392e-08 0.0258776560504
6.83911647282e-08 0.0257339290872
6.91830970919e-08 0.0255900306687
6.99841996002e-08 0.0254400170308
7.07945784384e-08 0.0252993685273
7.16143410213e-08 0.0251463785761
7.24435960075e-08 0.0250035182859
7.32824533139e-08 0.024853770783
7.41310241301e-08 0.0247226369955
7.49894209333e-08 0.0245690684687
7.58577575029e-08 0.0244347858711
7.67361489362e-08 0.0242968343729
7.76247116629e-08 0.0241515555457
7.8523563461e-08 0.024019660494
7.94328234725e-08 0.023881742811
8.03526122186e-08 0.0237466461421
8.12830516164e-08 0.023603197523
8.22242649947e-08 0.0234777179456
8.31763771103e-08 0.0233363439684
8.41395141645e-08 0.0231952671935
8.51138038203e-08 0.0230694737823
8.60993752185e-08 0.0229342212759
8.70963589956e-08 0.0228037252678
8.81048873008e-08 0.0226658867635
8.91250938134e-08 0.0225506248761
9.01571137606e-08 0.022415165267
9.12010839356e-08 0.022281339044
9.22571427155e-08 0.0221585054857
9.33254300797e-08 0.0220311152609
9.44060876286e-08 0.0219063183736
9.54992586022e-08 0.0217822783158
9.6605087899e-08 0.0216638872373
9.77237220956e-08 0.0215321328809
9.88553094657e-08 0.0214101305647
1e-07 0.0212808772875
1.01157945426e-07 0.0211597454282
1.02329299228e-07 0.0210403292959
1.03514216668e-07 0.0209182808318
1.04712854805e-07 0.0207980921586
1.05925372518e-07 0.0206756104666
1.07151930524e-07 0.0205637640542
1.08392691402e-07 0.0204484096654
1.09647819614e-07 0.0203263541713
1.10917481526e-07 0.0202152618101
1.1220184543e-07 0.0201010321248
1.13501081567e-07 0.0199686645655
1.1481536215e-07 0.0198742833081
1.16144861384e-07 0.0197484961281
1.17489755494e-07 0.0196391947383
1.18850222744e-07 0.0195238795372
1.20226443462e-07 0.0194083150379
1.21618600065e-07 0.0193030995573
1.23026877081e-07 0.0191893357379
1.24451461177e-07 0.0190821090159
1.25892541179e-07 0.0189666206802
1.27350308102e-07 0.0188615707277
1.28824955169e-07 0.0187513285072
1.30316677845e-07 0.0186451526767
1.31825673856e-07 0.0185417872092
1.33352143216e-07 0.0184345334632
1.34896288259e-07 0.0183265548219
1.36458313659e-07 0.0182193216191
1.3803842646e-07 0.0181196099629
1.39636836106e-07 0.018008234374
1.41253754462e-07 0.0179048354033
1.42889395851e-07 0.0178028609976
1.44543977075e-07 0.0177083039436
1.46217717446e-07 0.017598126629
1.47910838817e-07 0.0175054450741
1.49623565609e-07 0.017400019975
1.51356124844e-07 0.017301120426
1.53108746168e-07 0.0172016951662
1.54881661891e-07 0.0171074017656
1.56675107011e-07 0.0170004796884
1.58489319246e-07 0.0169065996992
1.60324539069e-07 0.0168064787326
1.62181009736e-07 0.0167154770844
1.6405897732e-07 0.0166216874674
1.65958690744e-07 0.0165223570318
1.67880401812e-07 0.016428944701
1.69824365246e-07 0.016333655329
1.71790838716e-07 0.016241235407
1.73780082875e-07 0.0161514818721
1.75792361396e-07 0.0160550857523
1.77827941004e-07 0.0159633446308
1.79887091513e-07 0.0158658898965
1.81970085861e-07 0.0157819555317
1.84077200147e-07 0.0156874832821
1.86208713666e-07 0.0155975410727
1.88364908949e-07 0.01550453532
1.90546071796e-07 0.0154159262897
1.92752491319e-07 0.0153330958728
1.94984459976e-07 0.0152468871951
1.97242273612e-07 0.015154325177
1.99526231497e-07 0.0150634018073
2.01836636368e-07 0.014988048549
2.04173794467e-07 0.0148960798652
2.06538015581e-07 0.0148070154911
2.08929613085e-07 0.0147277316686
2.11348903984e-07 0.0146413845525
2.1379620895e-07 0.0145532640419
2.16271852373e-07 0.0144726781069
2.18776162395e-07 0.0143944574005
2.21309470961e-07 0.0143014553048
2.23872113857e-07 0.0142288074675
2.26464430759e-07 0.014142012621
2.29086765277e-07 0.014061660369
2.31739464997e-07 0.0139809431869
2.34422881532e-07 0.0138953048295
2.37137370566e-07 0.0138206432291
2.39883291902e-07 0.0137433194882
2.42661009508e-07 0.013663931018
2.45470891569e-07 0.0135855548869
2.4831331053e-07 0.0135106963786
2.51188643151e-07 0.0134308538892
2.54097270555e-07 0.0133579216954
2.57039578277e-07 0.0132771840614
2.60015956317e-07 0.0132019232862
2.6302679919e-07 0.0131295019402
2.6607250598e-07 0.0130493415509
2.69153480393e-07 0.0129742968777
2.72270130808e-07 0.0128959563226
2.75422870334e-07 0.0128305946498
2.78612116863e-07 0.0127519529304
2.81838293127e-07 0.0126775090284
2.8510182675e-07 0.0126012712033
2.88403150313e-07 0.0125332078847
2.917427014e-07 0.0124611727658
2.95120922667e-07 0.0123924428447
2.98538261892e-07 0.0123202972942
3.0199517204e-07 0.0122444057581
3.05492111322e-07 0.0121750704354
3.09029543251e-07 0.0121100004294
3.12607936712e-07 0.0120384701315
3.16227766017e-07 0.0119710872278
3.19889510969e-07 0.0118975294939
3.2359365693e-07 0.011830480563
3.27340694879e-07 0.0117667432309
3.31131121483e-07 0.0116980591531
3.34965439158e-07 0.011627799094
3.38844156139e-07 0.0115578092308
3.42767786547e-07 0.011491588473
3.46736850453e-07 0.0114300272832
3.50751873953e-07 0.011366289852
3.54813389234e-07 0.0113018548266
3.58921934645e-07 0.0112301344748
3.6307805477e-07 0.0111712631879
3.67282300498e-07 0.0111059888796
3.71535229097e-07 0.0110419130907
3.75837404289e-07 0.0109811933461
3.80189396321e-07 0.0109179558299
3.84591782045e-07 0.0108573145162
3.89045144994e-07 0.0107927706933
3.93550075456e-07 0.0107316186958
3.98107170554e-07 0.0106694567397
4.02717034326e-07 0.0106075722077
4.07380277804e-07 0.0105427075616
4.12097519097e-07 0.0104858590488
4.1686938347e-07 0.0104240751664
4.21696503429e-07 0.0103675683787
4.26579518802e-07 0.0103049265795
4.31519076828e-07 0.0102466090155
4.3651583224e-07 0.0101898074902
4.41570447353e-07 0.0101245354457
4.46683592151e-07 0.0100687856638
4.51855944375e-07 0.0100148995992
4.57088189615e-07 0.00995562055992
4.62381021399e-07 0.00989758095824
4.67735141287e-07 0.00984041374096
4.73151258962e-07 0.00978567354942
4.78630092323e-07 0.00973274529497
4.84172367584e-07 0.00967806535949
4.89778819369e-07 0.0096174401991
4.95450190805e-07 0.00956231473689
5.01187233627e-07 0.00950618336943
5.06990708275e-07 0.00945365855668
5.12861383992e-07 0.00939873340125
5.18800038929e-07 0.00934385474227
5.2480746025e-07 0.00929265349622
5.30884444231e-07 0.00923681211186
5.3703179637e-07 0.00918731176532
5.43250331493e-07 0.00913065472117
5.49540873858e-07 0.00908020255331
5.55904257271e-07 0.00902951428419
5.62341325191e-07 0.00897492092065
5.68852930844e-07 0.00892574715829
5.75439937337e-07 0.00887105570998
5.82103217771e-07 0.00882176467302
5.88843655356e-07 0.00877039412912
5.95662143529e-07 0.0087224333231
6.02559586075e-07 0.00867247664627
6.0953689724e-07 0.00862453006372
6.16595001862e-07 0.00857206533858
6.23734835483e-07 0.00852291480046
6.3095734448e-07 0.00847576545675
6.38263486191e-07 0.00842235715295
6.45654229035e-07 0.00837620307688
6.53130552648e-07 0.00832913529279
6.60693448008e-07 0.00828016736583
6.68343917569e-07 0.00823397349337
6.76082975392e-07 0.0081891567303
6.83911647282e-07 0.00814086340849
6.91830970919e-07 0.00809387480448
6.99841996002e-07 0.00804477151454
7.07945784384e-07 0.00800058388038
7.16143410213e-07 0.00795654296081
7.24435960075e-07 0.00790549607471
7.32824533139e-07 0.00786261955408
7.41310241301e-07 0.0078158484822
7.49894209333e-07 0.00777148525343
7.58577575029e-07 0.00772921759153
7.67361489362e-07 0.00768548911735
7.76247116629e-07 0.00764075856453
7.8523563461e-07 0.00759509720188
7.94328234724e-07 0.00755331929838
