#FileType: Geant4 XSECTSPY DATA
#PhysicsList: QGSP_BIC_HP_EMZ
#ParticleName: neutron
#ParticleCode: 2112
#ParticleMass[MeV/c^2]: 939.565
#ParticleCharge: 0.000000
#Material: NCrystal:cfg=NCrystalRel/Al_sg225.ncmat
#MaterialDensity [g/cm3]: 2.69865
#MaterialTemperature [K]: 293.15
#MaterialPressure [bar]: 1.01325
#MaterialAverageAtomicWeight [amu]: 26.9815
#NAtomsPerVolume [1/cm3]: 6.02325e+22
#ConvertXSectBarnToMeanFreePathMilliMeter: 166.023
#EnergyUnit: eV
#XSectUnit: barn
#Process 0: neutronInelastic
870963.589956 9.61468387918e-05
881048.873008 0.00166307001362
891250.938134 0.00718785765726
901571.137606 0.0119363617058
912010.839356 0.0157732198535
922571.427155 0.0195488997544
933254.300797 0.0233635507884
944060.876286 0.027219798073
954992.586021 0.0311191654677
966050.87899 0.0350638209748
977237.220956 0.0390518109409
988553.094657 0.0430869107054
1000000 0.0471637625426
1011579.45426 0.0501594401156
1023292.99228 0.0522499435133
1035142.16668 0.0543637508904
1047128.54805 0.0565136950933
1059253.72518 0.0624590251076
1071519.30524 0.071696705406
1083926.91402 0.0810388979667
1096478.19614 0.0904892034661
1109174.81526 0.100049173214
1122018.4543 0.109713234625
1135010.81567 0.119490029615
1148153.6215 0.129381867481
1161448.61384 0.139384077924
1174897.55494 0.14950159237
1188502.22744 0.159741141866
1202264.43462 0.170096012044
1216186.00065 0.18056829966
1230268.77081 0.191165341732
1244514.61177 0.201883852127
1258925.41179 0.211974990171
1273503.08102 0.217289648347
1288249.55169 0.221786642381
1303166.77845 0.226335757009
1318256.73856 0.230939059159
1333521.43216 0.235595288703
1348962.88259 0.240304547029
1364583.13659 0.245069598598
1380384.2646 0.249888282563
1396368.36106 0.254763720623
1412537.54462 0.259694579069
1428893.95851 0.26468578615
1445439.77075 0.269731292769
1462177.17446 0.274834934409
1479108.38817 0.280000290266
1496235.65609 0.285224793817
1513561.24844 0.2905084605
1531087.46168 0.295507268604
1548816.61891 0.297844490945
1566751.07011 0.299635263403
1584893.19246 0.301446563241
1603245.39069 0.303279323086
1621810.09736 0.305133073115
1640589.7732 0.307008139481
1659586.90744 0.308905079842
1678804.01812 0.310823697656
1698243.65246 0.312765575983
1717908.38716 0.314728737715
1737800.82875 0.316715306339
1757923.61396 0.318723945339
1778279.41004 0.320756283596
1798870.91513 0.322812610617
1819700.85861 0.32489288655
1840772.00147 0.326995502806
1862087.13666 0.328246132255
1883649.08949 0.328739993914
1905460.71796 0.329239369625
1927524.91319 0.329744521154
1949844.59976 0.330255762487
1972422.73611 0.330772381663
1995262.31497 0.331295130149
2018366.36368 0.331823924597
2041737.94467 0.332359612135
2065380.15581 0.332900526024
2089296.13085 0.33344814622
2113489.03984 0.334002100625
2137962.0895 0.334562455416
2162718.52373 0.335129483825
2187761.62395 0.335702596642
2213094.70961 0.336282320877
2238721.13857 0.336869518038
2264644.30759 0.337462621012
2290867.65277 0.338216716868
2317394.64997 0.347980276293
2344228.81532 0.363196321756
2371373.70566 0.378589473687
2398832.91902 0.394160739851
2426610.09508 0.409916106244
2454708.91568 0.425849342271
2483133.10529 0.441967804956
2511886.43151 0.458273810152
2540972.70555 0.47106094025
2570395.78277 0.477827657364
2600159.56316 0.484582241422
2630267.99189 0.491417705414
2660725.0598 0.49833109642
2691534.80393 0.505324895311
2722701.30808 0.512400048349
2754228.70334 0.519555830733
2786121.16863 0.526794421502
2818382.93126 0.53435898148
2851018.2675 0.542597724953
2884031.50313 0.550963091171
2917427.014 0.559426593605
2951209.22667 0.567984447306
2985382.61892 0.576642628829
3019951.7204 0.585315394916
3054921.11321 0.59130291952
3090295.43251 0.596010308027
3126079.36712 0.600846659992
3162277.66017 0.613495386481
3198895.10969 0.631579429364
3235936.5693 0.649872570421
3273406.94879 0.668363027596
3311311.21483 0.679693427698
3349654.39158 0.685059167705
3388441.56139 0.690487270523
3427677.86546 0.695978973991
3467368.50452 0.70153524198
3507518.73952 0.707154505966
3548133.89233 0.712839653838
3589219.34645 0.718588426082
3630780.5477 0.724403874461
3672823.00498 0.730289104316
3715352.29097 0.736241451678
3758374.04288 0.74209390526
3801893.9632 0.74588033941
3845917.82045 0.749061819836
3890451.44994 0.752281424774
3935500.75456 0.755538676879
3981071.70553 0.758833234814
4027170.34325 0.762164310236
4073802.77804 0.765535880875
4120975.19097 0.768945902859
4168693.8347 0.772395806256
4216965.03428 0.775885311874
4265795.18801 0.779414871468
4315190.76828 0.782985734213
4365158.3224 0.786597001558
4415704.47353 0.790251787273
4466835.92151 0.7939478016
4518559.44375 0.797687086268
4570881.89615 0.801468339604
4623810.21399 0.805295366417
4677351.41287 0.809165069898
4731512.58961 0.813081309859
4786300.92323 0.817041777598
4841723.67584 0.821047685427
4897788.19368 0.825100466695
4954501.90805 0.829200935851
5011872.33627 0.833348244078
5069907.08275 0.837542714385
5128613.83991 0.841786656913
5188000.38929 0.846079792039
5248074.6025 0.850422229532
5308844.44231 0.854815252222
5370317.9637 0.859259657362
5432503.31492 0.86375449534
5495408.73857 0.868301127067
5559042.5727 0.872901772412
5623413.2519 0.877555633851
5688529.30844 0.882263191385
5754399.37337 0.887022694003
5821032.17771 0.891841758381
5888436.55355 0.896713749742
5956621.43529 0.901560938454
6025595.86074 0.905146637953
6095368.9724 0.90831446132
6165950.01861 0.911517577051
6237348.35482 0.914757974374
6309573.4448 0.918035719782
6382634.8619 0.921351293253
6456542.29034 0.924706446639
6531305.52647 0.928099085715
6606934.48007 0.931531001126
6683439.17568 0.935004365924
6760829.75392 0.938515960941
6839116.47281 0.942069523485
6918309.70919 0.945663386728
6998419.96002 0.94929896552
7079457.84384 0.952977906327
7161434.10213 0.95669821267
7244359.60075 0.960461416129
7328245.33139 0.964269715328
7413102.41301 0.967262624179
7498942.09332 0.967280128143
7585775.75029 0.967037197543
7673614.89362 0.966792319387
7762471.16628 0.96654493377
7852356.3461 0.966293857647
7943282.34724 0.966040039969
8035261.22185 0.965783301605
8128305.16164 0.965523527088
8222426.49947 0.965261165475
8317637.71102 0.964995241371
8413951.41645 0.964726443891
8511380.38202 0.964454073468
8609937.52184 0.964179391142
8709635.89956 0.963901760427
8810488.73008 0.963619784171
8912509.38134 0.96333522485
9015711.37606 0.963047386686
9120108.39356 0.962755626458
9225714.27155 0.962461033469
9332543.00797 0.962163103766
9440608.76286 0.961861222595
9549925.86021 0.961556112166
9660508.7899 0.961247606234
9772372.20956 0.960935558506
9885530.94657 0.960619437657
10000000 0.960300536833
10115794.5426 0.959977353615
10232929.9228 0.959650627726
10351421.6668 0.959319563002
10471285.4805 0.958984850121
10592537.2518 0.958646547206
10715193.0524 0.958304555188
10839269.1402 0.957957966663
10964781.9614 0.957607906332
11091748.1526 0.957253721677
11220184.543 0.95689506967
11350108.1567 0.956532592875
11481536.215 0.956165771567
11614486.1384 0.955794968284
11748975.5494 0.955419521774
11885022.2744 0.955039558262
12022644.3462 0.95465555215
12161860.0065 0.954267166992
12302687.7081 0.953874337181
12445146.1177 0.953476303637
12589254.1179 0.953074498609
12735030.8102 0.95266765459
12882495.5169 0.952256608503
13031667.7845 0.951839771843
13182567.3856 0.951418741266
13335214.3216 0.950992618143
13489628.8259 0.950561757912
13645831.3659 0.9501261285
13803842.646 0.949685059344
13963683.6106 0.949238688355
14125375.4462 0.948787417402
14288939.5851 0.948331176164
14454397.7075 0.94786936278
14621771.7446 0.947402048039
14791083.8817 0.946929612576
14962356.5609 0.946451755063
15135612.4844 0.945968434851
15310874.6168 0.945479273263
15488166.1891 0.944984506472
15667510.7011 0.944484031103
15848931.9246 0.943977639636
16032453.9069 0.943465826327
16218100.9736 0.94294766027
16405897.732 0.942423521098
16595869.0744 0.941185771073
16788040.1812 0.939211766057
16982436.5246 0.937215039191
17179083.8716 0.935195182941
17378008.2875 0.933151554323
17579236.1396 0.931084717271
17782794.1004 0.928993665823
17988709.1513 0.926878473266
18197008.5861 0.924738618435
18407720.0147 0.922574373469
18620871.3666 0.920384894697
18836490.8949 0.918170144373
19054607.1796 0.915929520944
19275249.1319 0.913663072897
19498445.9976 0.911370433905
19724227.3611 0.909051168053
19952623.1497 0.906322850154
20183663.6368 0.902268747996
20417379.4467 0.898763267694
20653801.5581 0.895217195291
20892961.3085 0.891630060733
21134890.3984 0.888001388522
21379620.895 0.884330697654
21627185.2373 0.880617501552
21877616.2395 0.876861308008
22130947.096 0.872846070967
22387211.3857 0.868575300929
22646443.0759 0.864255076742
22908676.5277 0.859884825713
23173946.4997 0.855463968523
23442288.1532 0.850991919137
23713737.0566 0.846468084735
23988329.1902 0.84189186563
24266100.9508 0.83726265519
24547089.1568 0.832579839754
24831331.0529 0.827842798555
25118864.3151 0.823544152154
25409727.0555 0.819903096447
25703957.8277 0.816225475452
26001595.6316 0.812505268889
26302679.9189 0.808741983613
26607250.598 0.80493512077
26915348.0393 0.801082924086
27227013.0808 0.797151131418
27542287.0334 0.793157941932
27861211.6863 0.789118512555
28183829.3126 0.785032307817
28510182.675 0.780898786046
28840315.0313 0.776717399298
29174270.14 0.772487593279
29512092.2667 0.768208807277
29853826.1892 0.763879122696
30199517.204 0.759159858893
30549211.1321 0.754124596356
30902954.3251 0.749031026333
31260793.6712 0.74387847357
31622776.6017 0.738666254992
31988951.0969 0.733393679608
32359365.693 0.72806004842
32734069.4879 0.722664654332
33113112.1482 0.717206782054
33496543.9158 0.711685708006
33884415.6139 0.706100700224
34276778.6546 0.700451018261
34673685.0452 0.694735913088
35075187.3952 0.689590128287
35481338.9233 0.686362764896
35892193.4645 0.683240493692
36307805.477 0.680082067665
36728230.0498 0.676887068136
37153522.9097 0.67365507158
37583740.4288 0.670385649567
38018939.632 0.667078368701
38459178.2045 0.663732790572
38904514.4994 0.660348471687
39355007.5456 0.65692496342
39810717.0553 0.653460635256
40271703.4325 0.649743483782
40738027.7804 0.645826623076
41209751.9097 0.641864406011
41686938.347 0.637856307332
42169650.3428 0.633801795701
42657951.8801 0.62970033362
43151907.6828 0.625551377369
43651583.224 0.621354376927
44157044.7353 0.617108775898
44668359.2151 0.612814011445
45185594.4375 0.608544841742
45708818.9615 0.604356988318
46238102.1399 0.600122995535
46773514.1287 0.595839973673
47315125.8961 0.591507354921
47863009.2322 0.587124564891
48417236.7584 0.582691022537
48977881.9368 0.578206140081
49545019.0805 0.573669322933
50118723.3627 0.569150675988
50699070.8275 0.564785319993
51286138.3991 0.560382585661
51880003.8929 0.555928867858
52480746.025 0.551423576116
53088444.4231 0.546866113125
53703179.637 0.54225587465
54325033.1492 0.537592249455
54954087.3857 0.532874619215
55590425.727 0.528102358439
56234132.519 0.523274834384
56885293.0844 0.518391406971
57543993.7337 0.513451428697
58210321.7771 0.508454244553
58884365.5355 0.50339919193
59566214.3529 0.498285600535
60255958.6074 0.494662910635
60953689.724 0.493576775212
61659500.1861 0.49251814156
62373483.5482 0.491447249437
63095734.448 0.490363956892
63826348.619 0.489268120335
64565422.9034 0.488159594509
65313055.2647 0.487038232479
66069344.8007 0.485903885604
66834391.7568 0.484756403525
67608297.5392 0.483595634141
68391164.7281 0.482421423589
69183097.0919 0.481233616226
69984199.6002 0.479950693495
70794578.4384 0.478106276493
71614341.0213 0.476138989265
72443596.0075 0.474148921585
73282453.3139 0.472135809658
74131024.1301 0.470099386629
74989420.9332 0.468039382556
75857757.5029 0.46595552437
76736148.9362 0.463847535838
77624711.6628 0.46171513753
78523563.461 0.459558046776
79432823.4724 0.457375977637
80352612.2185 0.455593312792
81283051.6164 0.454468104632
82224264.9947 0.453338735214
83176377.1102 0.452196288221
84139514.1645 0.451040612218
85113803.8202 0.449871554018
86099375.2184 0.44868895866
87096358.9956 0.447492669386
88104887.3008 0.446282527627
89125093.8133 0.445058372973
90157113.7606 0.44382004316
91201083.9356 0.442567374043
92257142.7154 0.441300199578
93325430.0797 0.440018351796
94406087.6286 0.438721660785
95499258.6021 0.437409954662
96605087.8989 0.436083059558
97723722.0955 0.434740799588
98855309.4657 0.433382996829
100000000 0.432093512729
101157945.426 0.431310115078
102329299.228 0.430607358069
103514216.668 0.429896463484
104712854.805 0.429177337093
105925372.518 0.428449883576
107151930.524 0.427714006507
108392691.402 0.426969608345
109647819.614 0.42621659042
110917481.526 0.425454852919
112201845.43 0.424684294873
113501081.567 0.423904814142
114815362.15 0.423116307407
116144861.384 0.422318670149
117489755.494 0.421511796642
118850222.744 0.420695579932
120226443.462 0.420048983678
121618600.065 0.42
123026877.081 0.42
124451461.177 0.42
125892541.179 0.42
127350308.102 0.42
128824955.169 0.42
130316677.845 0.42
131825673.856 0.42
133352143.216 0.42
134896288.259 0.42
136458313.659 0.42
138038426.46 0.42
139636836.106 0.42
141253754.462 0.42
142889395.851 0.42
144543977.075 0.42
146217717.446 0.42
147910838.817 0.42
149623565.609 0.42
151356124.844 0.42
153108746.168 0.42
154881661.891 0.42
156675107.011 0.42
158489319.246 0.42
160324539.069 0.419793587458
162181009.736 0.418915970793
164058977.32 0.417977059557
165958690.744 0.417027276174
167880401.812 0.416066494747
169824365.246 0.415094587924
171790838.716 0.414111426876
173780082.875 0.413116881283
175792361.396 0.412110819316
177827941.004 0.411093107619
179887091.513 0.410163233094
181970085.861 0.41
184077200.147 0.41
186208713.666 0.41
188364908.949 0.41
190546071.796 0.41
192752491.319 0.41
194984459.976 0.41
197242273.611 0.41
199526231.497 0.409981132854
201836636.368 0.409635938704
204173794.467 0.409168544337
206538015.581 0.408695737783
208929613.085 0.408217456373
211348903.984 0.40773363671
213796208.95 0.407244214663
216271852.373 0.40674912536
218776162.395 0.406248303176
221309470.961 0.405741681728
223872113.857 0.405229193863
226464430.759 0.404710771649
229086765.277 0.404186346371
231739464.997 0.403655848516
234422881.532 0.403119207765
237137370.566 0.402576352987
239883291.902 0.402027212227
242661009.508 0.401471712695
245470891.568 0.400909780761
248313310.53 0.400341341938
251188643.151 0.400049919889
254097270.555 0.400163054588
257039578.277 0.400280737181
260015956.316 0.400399782474
263026799.189 0.400520206245
266072505.98 0.400642024457
269153480.393 0.400765253257
272270130.808 0.400889908979
275422870.334 0.401016008144
278612116.863 0.401143567469
281838293.126 0.40127260386
285101826.75 0.40140313442
288403150.313 0.401535176453
291742701.4 0.40166874746
295120922.667 0.401803865145
298538261.892 0.401940547418
301995172.04 0.402078812396
305492111.322 0.402218678406
309029543.251 0.402360163987
312607936.712 0.402503287893
316227766.017 0.402648069095
319889510.969 0.402794526782
323593656.93 0.402942680369
327340694.879 0.403092549493
331131121.483 0.403244154017
334965439.158 0.403397514039
338844156.139 0.403552649884
342767786.546 0.403709582117
346736850.452 0.403868331537
350751873.953 0.404066150993
354813389.234 0.404382721717
358921934.645 0.404711377905
363078054.77 0.405043839748
367282300.498 0.405380151312
371535229.097 0.405720357175
375837404.288 0.406064502431
380189396.321 0.406412632695
384591782.045 0.406764794112
389045144.994 0.40712103336
393550075.456 0.407481397659
398107170.553 0.407847104469
402717034.325 0.408429329952
407380277.804 0.409175385326
412097519.097 0.409930079592
416869383.47 0.410693512784
421696503.429 0.411465786093
426579518.802 0.412247001883
431519076.828 0.413037263703
436515832.24 0.413836676299
441570447.353 0.414645345633
446683592.151 0.415463378893
451855944.375 0.416290884506
457088189.615 0.417127972157
462381021.399 0.417974752801
467735141.287 0.418831338676
473151258.961 0.419697843322
478630092.323 0.420574381592
484172367.584 0.421461069669
489778819.368 0.422358025082
495450190.805 0.423265366721
501187233.627 0.424155082388
506990708.275 0.424972748393
512861383.991 0.425794572812
518800038.929 0.426625913485
524807460.25 0.427466880604
530884444.231 0.428317585637
537031796.37 0.429178141345
543250331.492 0.430048661792
549540873.858 0.430929262364
555904257.27 0.431820059782
562341325.19 0.432721172121
568852930.844 0.43363271882
575439937.337 0.434554820704
582103217.771 0.435487599996
588843655.356 0.436431180333
595662143.529 0.437385686785
602559586.074 0.438248274328
609536897.24 0.438948598393
616595001.861 0.439654348959
623734835.482 0.440368271713
630957344.48 0.441090461283
638263486.191 0.441821013395
645654229.035 0.442560024882
653130552.647 0.443307593699
660693448.008 0.444063818933
668343917.569 0.444828800822
676082975.392 0.445602640763
683911647.281 0.446385441326
691830970.919 0.44717730627
699841996.002 0.447906233962
707945784.384 0.448157749794
716143410.213 0.448321688754
724435960.075 0.448487526037
732824533.139 0.448655283623
741310241.301 0.44882498375
749894209.332 0.44899664891
758577575.029 0.449170301857
767361489.362 0.44934596561
776247116.629 0.449523663451
785235634.61 0.449703418935
794328234.724 0.449885255888
803526122.186 0.450139849848
812830516.164 0.45051052883
822242649.947 0.45088698273
831763771.103 0.451267795755
841395141.645 0.451653018381
851138038.202 0.452042701668
860993752.185 0.452436897268
870963589.956 0.452835657432
881048873.008 0.453239035014
891250938.134 0.453647083482
901571137.606 0.454016795274
912010839.356 0.454238713101
922571427.155 0.454449907354
933254300.797 0.45466354712
944060876.286 0.454879660715
954992586.021 0.455098276785
966050878.99 0.455319424309
977237220.956 0.455543132597
988553094.657 0.455769431303
1000000000 0.456015121487
1011579454.26 0.456367862975
1023292992.28 0.456742664888
1035142166.68 0.457121806797
1047128548.05 0.457505338956
1059253725.18 0.457893312202
1071519305.24 0.45828577796
1083926914.02 0.458682788251
1096478196.14 0.459084395698
1109174815.26 0.459490653533
1122018454.3 0.459901615606
1135010815.67 0.460317336387
1148153621.5 0.460737870982
1161448613.84 0.46116327513
1174897554.94 0.461593605219
1188502227.44 0.462028918287
1202264434.62 0.462469272036
1216186000.65 0.462914724833
1230268770.81 0.463365335722
1244514611.77 0.463821164431
1258925411.79 0.464282271379
1273503081.02 0.464748717685
1288249551.69 0.465220565177
1303166778.45 0.465697876396
1318256738.56 0.466180714609
1333521432.16 0.466669143816
1348962882.59 0.467163228757
1364583136.59 0.467663034922
1380384264.6 0.46816862856
1396368361.06 0.468680076687
1412537544.62 0.469197447093
1428893958.51 0.469720808356
1445439770.75 0.470250229846
1462177174.46 0.470785781737
1479108388.17 0.471327535016
1496235656.09 0.471865201596
1513561248.44 0.472214980601
1531087461.68 0.472495376709
1548816618.91 0.472779019648
1566751070.11 0.473065947013
1584893192.46 0.473356196837
1603245390.69 0.473649807593
1621810097.36 0.473946818197
1640589773.2 0.474247268018
1659586907.44 0.47455119688
1678804018.12 0.474858645068
1698243652.46 0.475169653335
1717908387.16 0.475484262904
1737800828.75 0.475802515475
1757923613.96 0.476124453234
1778279410.04 0.476450118851
1798870915.13 0.476779555495
1819700858.61 0.47711280683
1840772001.47 0.47744991703
1862087136.66 0.477790930777
1883649089.49 0.478135893272
1905460717.96 0.47848485024
1927524913.19 0.478837847933
1949844599.76 0.479194933143
1972422736.12 0.479556153199
1995262314.97 0.479893271447
2018366363.68 0.479745169462
2041737944.67 0.479417993716
2065380155.81 0.479087029448
2089296130.85 0.478752232789
2113489039.84 0.478413559361
2137962089.5 0.478070964273
2162718523.73 0.477724402115
2187761623.95 0.47737382695
2213094709.61 0.477019192309
2238721138.57 0.476660451186
2264644307.59 0.47629755603
2290867652.77 0.475930458739
2317394649.97 0.475559110654
2344228815.32 0.475183462554
